   # This file was created in 2015
   # frequency [MHz]   real(s11)   imag(s11)   real(s12s21)   imag(s12s21)   real(s22)   imag(s22)
   1.0000000000000000e+00   1.4608947634343547e-04   3.0999667894116478e-04   9.9965279068968127e-01  -5.2548517195712841e-03   1.1658179751923801e-04   6.1724964265876521e-06
   2.0000000000000000e+00   2.6665802155355714e-04   3.7589115077104820e-04   9.9949543666366580e-01  -1.0515493946662180e-02   1.4157720484181527e-04   1.9192108592388355e-04
   3.0000000000000000e+00   3.3791870947553560e-04   4.3528720557534193e-04   9.9928619257473661e-01  -1.5667565769109191e-02   2.0337325643195457e-04   2.9683649154004161e-04
   4.0000000000000000e+00   3.9876363594849732e-04   5.0170941206202808e-04   9.9908221858053547e-01  -2.0787284048311629e-02   2.6743792564672467e-04   3.5915281412720126e-04
   5.0000000000000000e+00   4.6067313866521271e-04   5.6077855210751265e-04   9.9887797597677497e-01  -2.5884497189621346e-02   3.0589087197467130e-04   4.1253239220077952e-04
   6.0000000000000000e+00   5.1073069729978295e-04   6.2168540473096106e-04   9.9861913044855721e-01  -3.0958255611996152e-02   3.7030176860985205e-04   4.5795967722954254e-04
   7.0000000000000000e+00   5.6681332201002866e-04   6.7268334955593832e-04   9.9836349994912577e-01  -3.6026325260162737e-02   4.2411807723337542e-04   4.9767963944266755e-04
   8.0000000000000000e+00   6.2028012269350842e-04   7.2092803367890474e-04   9.9807941624470964e-01  -4.1083088598494931e-02   4.7109340710313501e-04   5.2976354451604514e-04
   9.0000000000000000e+00   6.7186513029978811e-04   7.6348256529177661e-04   9.9776741279770431e-01  -4.6120659500569240e-02   5.0835121695375204e-04   5.5805588206362939e-04
   1.0000000000000000e+01   7.2130325490463187e-04   8.0154605806262826e-04   9.9744714060991113e-01  -5.1160927731082391e-02   5.6225657760921124e-04   5.8770952421218739e-04
   1.1000000000000000e+01   7.6766878254196948e-04   8.3811189879057311e-04   9.9709906322056563e-01  -5.6192570724832344e-02   6.0368070320142688e-04   6.0864756283042888e-04
   1.2000000000000000e+01   8.1437882540209719e-04   8.7217671849023433e-04   9.9672675375647546e-01  -6.1213499662308421e-02   6.3817657470641317e-04   6.3047601657702462e-04
   1.3000000000000000e+01   8.5598149946605013e-04   9.0379732227907649e-04   9.9633878862177461e-01  -6.6236543619109564e-02   6.8684791600879007e-04   6.4625594094955274e-04
   1.4000000000000000e+01   9.0097521511757744e-04   9.3341084070408759e-04   9.9592762869697915e-01  -7.1249928104571758e-02   7.2429616839613659e-04   6.6128011519045037e-04
   1.5000000000000000e+01   9.4256991113250666e-04   9.6201007968355686e-04   9.9548968219868872e-01  -7.6256349055709410e-02   7.5656340192327214e-04   6.7761302855283705e-04
   1.6000000000000000e+01   9.8296477101790405e-04   9.8796196348653522e-04   9.9503484334627579e-01  -8.1265522992210376e-02   7.9929457788999604e-04   6.8904292331328039e-04
   1.7000000000000000e+01   1.0219576681841246e-03   1.0148045655563528e-03   9.9454948723989278e-01  -8.6271764351589467e-02   8.3568330334783257e-04   6.9784298385456092e-04
   1.8000000000000000e+01   1.0615537145184095e-03   1.0394248393932634e-03   9.9403713728129217e-01  -9.1269675444494131e-02   8.6345709122644674e-04   7.1005170469925659e-04
   1.9000000000000000e+01   1.0976090032609762e-03   1.0628605968122466e-03   9.9351332154496774e-01  -9.6265260391955140e-02   9.0859946215629246e-04   7.1820854865815669e-04
   2.0000000000000000e+01   1.1358277573930984e-03   1.0857821118416347e-03   9.9295692464222873e-01  -1.0125480571293899e-01   9.4279643634658330e-04   7.2604232520828726e-04
   2.1000000000000000e+01   1.1740914282548762e-03   1.1063188427642911e-03   9.9237304210462007e-01  -1.0623915962181560e-01   9.6804025146500516e-04   7.3538904927725537e-04
   2.2000000000000000e+01   1.2102714756089623e-03   1.1278209233358248e-03   9.9177241998331844e-01  -1.1122552709454488e-01   1.0077385566656055e-03   7.3756926463543811e-04
   2.3000000000000000e+01   1.2474203807610912e-03   1.1471899798229067e-03   9.9114377093108197e-01  -1.1620094510546394e-01   1.0401171160195279e-03   7.4337280137223274e-04
   2.4000000000000000e+01   1.2799551083435743e-03   1.1669434570215297e-03   9.9049114578595021e-01  -1.2117513875268530e-01   1.0757827293794925e-03   7.4725632861299604e-04
   2.5000000000000000e+01   1.3166409756754636e-03   1.1854942320501567e-03   9.8981264777004330e-01  -1.2613638265730109e-01   1.1048919175726192e-03   7.5119394435196234e-04
   2.6000000000000000e+01   1.3510351468690013e-03   1.2028807449289958e-03   9.8911159038239493e-01  -1.3109585913424465e-01   1.1395600917620302e-03   7.5590738510748106e-04
   2.7000000000000000e+01   1.3861380894510315e-03   1.2207270839619739e-03   9.8838799553956602e-01  -1.3605775309469539e-01   1.1711559159332684e-03   7.5601146055164295e-04
   2.8000000000000000e+01   1.4199308900524981e-03   1.2356305423404563e-03   9.8763407286445803e-01  -1.4100855885803662e-01   1.2031654659024902e-03   7.5758941845641397e-04
   2.9000000000000000e+01   1.4543302311208935e-03   1.2506051355475711e-03   9.8685697004937545e-01  -1.4595661100129018e-01   1.2339704712760094e-03   7.5858885426562626e-04
   3.0000000000000000e+01   1.4877155388293983e-03   1.2671161826376003e-03   9.8605735304544506e-01  -1.5089762240225782e-01   1.2653846574906195e-03   7.5994528948243969e-04
   3.1000000000000000e+01   1.5214295761110030e-03   1.2825810323590439e-03   9.8523317031165281e-01  -1.5583126668792890e-01   1.2948705334741863e-03   7.5762446209230272e-04
   3.2000000000000000e+01   1.5538784956950367e-03   1.2960977075492685e-03   9.8438542503055870e-01  -1.6076210985643469e-01   1.3268266815459184e-03   7.5599817525828317e-04
   3.3000000000000000e+01   1.5871533683498944e-03   1.3099534896959656e-03   9.8351334848619576e-01  -1.6568371138460553e-01   1.3554203763646775e-03   7.5320385730659912e-04
   3.4000000000000000e+01   1.6208769875770824e-03   1.3221773899068548e-03   9.8261746860832744e-01  -1.7060902398887109e-01   1.3842723856501680e-03   7.5165399515466204e-04
   3.5000000000000000e+01   1.6535215618849446e-03   1.3348955750118890e-03   9.8169462893302328e-01  -1.7551997773490952e-01   1.4137277136644219e-03   7.4836934673062623e-04
   3.6000000000000000e+01   1.6855481788050468e-03   1.3459114994355417e-03   9.8074912673896908e-01  -1.8042566551465122e-01   1.4452363296062129e-03   7.4785443326690884e-04
   3.7000000000000000e+01   1.7180221139559881e-03   1.3582144005221204e-03   9.7978388274340245e-01  -1.8532795024810780e-01   1.4759423106070345e-03   7.4160454013860104e-04
   3.8000000000000000e+01   1.7502767259636926e-03   1.3696577344249432e-03   9.7879158661190402e-01  -1.9022440928863513e-01   1.5048742048342297e-03   7.3519720149221694e-04
   3.9000000000000000e+01   1.7827482458577821e-03   1.3784623036296876e-03   9.7777400233632983e-01  -1.9511280228832792e-01   1.5333617420770567e-03   7.3119977984847082e-04
   4.0000000000000000e+01   1.8138284278327345e-03   1.3890596093841371e-03   9.7673075403090381e-01  -1.9999811781089172e-01   1.5634016362734108e-03   7.2459692244315808e-04
   4.1000000000000000e+01   1.8468269683811272e-03   1.3979395955908268e-03   9.7566491525523991e-01  -2.0487416152021548e-01   1.5897769457846570e-03   7.1766333202471296e-04
   4.2000000000000000e+01   1.8775191083791585e-03   1.4081394596214278e-03   9.7457873070600676e-01  -2.0974350815815443e-01   1.6199572976044576e-03   7.1031484711251000e-04
   4.3000000000000000e+01   1.9106513737213884e-03   1.4166621313785981e-03   9.7346524246495281e-01  -2.1460742832211405e-01   1.6480997693628873e-03   7.0256687604476349e-04
   4.4000000000000000e+01   1.9417306017545258e-03   1.4242417415904244e-03   9.7232883962351235e-01  -2.1946637443457875e-01   1.6768132869425453e-03   6.9561381477788609e-04
   4.5000000000000000e+01   1.9741813932316532e-03   1.4327968060911212e-03   9.7116969530346997e-01  -2.2431626822400932e-01   1.7046165994665725e-03   6.8426036969504098e-04
   4.6000000000000000e+01   2.0047545904943575e-03   1.4395992964194469e-03   9.6998477103275538e-01  -2.2916366836715105e-01   1.7324563221959085e-03   6.7617371192098253e-04
   4.7000000000000000e+01   2.0356971084666080e-03   1.4455926798910520e-03   9.6877277803482842e-01  -2.3400232093804807e-01   1.7586634598148463e-03   6.6753217864537245e-04
   4.8000000000000000e+01   2.0669933033234454e-03   1.4530751350433622e-03   9.6753903683695019e-01  -2.3882932543064489e-01   1.7868751535046210e-03   6.5745745522760980e-04
   4.9000000000000000e+01   2.0978928116859373e-03   1.4595657744403000e-03   9.6628323355979362e-01  -2.4365305561991446e-01   1.8123541334259432e-03   6.4640728447190382e-04
   5.0000000000000000e+01   2.1284191845819854e-03   1.4646415191124774e-03   9.6500518373478805e-01  -2.4846774497936305e-01   1.8416180107593961e-03   6.3766012039633869e-04
   5.1000000000000000e+01   2.1597745080140771e-03   1.4704148099153535e-03   9.6370219715895689e-01  -2.5327901171082251e-01   1.8702367862260222e-03   6.2592211241795526e-04
   5.2000000000000000e+01   2.1901652163911801e-03   1.4747965128936525e-03   9.6237546920322470e-01  -2.5808173926182276e-01   1.8974752276739082e-03   6.1400664363127854e-04
   5.3000000000000000e+01   2.2205731456433888e-03   1.4796473530131965e-03   9.6102498461603059e-01  -2.6287691144068298e-01   1.9241080860345355e-03   6.0180917736929419e-04
   5.4000000000000000e+01   2.2518121192070064e-03   1.4842311336101858e-03   9.5964732433032873e-01  -2.6765992402331473e-01   1.9484638285126377e-03   5.8886632588125054e-04
   5.5000000000000000e+01   2.2809982333447660e-03   1.4882034356723196e-03   9.5825186781518235e-01  -2.7243611894663777e-01   1.9781840832755488e-03   5.7746786274157167e-04
   5.6000000000000000e+01   2.3121981673200659e-03   1.4930131378641329e-03   9.5683190734832435e-01  -2.7720860335832098e-01   2.0045688583040715e-03   5.6654258219007757e-04
   5.7000000000000000e+01   2.3418743330736428e-03   1.4971290709749232e-03   9.5538974580345826e-01  -2.8196887628104778e-01   2.0339278862966537e-03   5.5329372528320009e-04
   5.8000000000000000e+01   2.3726462535044791e-03   1.5035724863647930e-03   9.5392639255346146e-01  -2.8672154149462187e-01   2.0637978547346095e-03   5.3689265136054468e-04
   5.9000000000000000e+01   2.4070797621507942e-03   1.5055565704177852e-03   9.5244058149332678e-01  -2.9147140860044179e-01   2.0936168793637485e-03   5.2252312358748486e-04
   6.0000000000000000e+01   2.4394929381165321e-03   1.5079344993524121e-03   9.5093376226896231e-01  -2.9621249813950540e-01   2.1228948204436320e-03   5.0083641417501368e-04
   6.1000000000000000e+01   2.4714267197117742e-03   1.5077731012347190e-03   9.4939768371694333e-01  -3.0095312161407561e-01   2.1464739987662640e-03   4.7860653915691716e-04
   6.2000000000000000e+01   2.5034191323834998e-03   1.5070656867342070e-03   9.4783453290446251e-01  -3.0568245224685103e-01   2.1701903291966303e-03   4.5923768078944384e-04
   6.3000000000000000e+01   2.5330145549328745e-03   1.5053613138662563e-03   9.4624628005880540e-01  -3.1040015097076801e-01   2.1905308267781576e-03   4.4112695738586115e-04
   6.4000000000000000e+01   2.5631330475320026e-03   1.5049958698271956e-03   9.4463649222361834e-01  -3.1510813682948763e-01   2.2112560310821846e-03   4.2363040420313248e-04
   6.5000000000000000e+01   2.5915829272909019e-03   1.5050288617024022e-03   9.4300206809814202e-01  -3.1980718108873252e-01   2.2349092072886929e-03   4.0683923155262623e-04
   6.6000000000000000e+01   2.6206010949599129e-03   1.5032365638136958e-03   9.4135192543668178e-01  -3.2449058428326616e-01   2.2576821552921789e-03   3.9288666809657942e-04
   6.7000000000000000e+01   2.6503452443579038e-03   1.5034299024479988e-03   9.3967573859457887e-01  -3.2916672441138600e-01   2.2793387738328911e-03   3.7370591554610117e-04
   6.8000000000000000e+01   2.6792977032432217e-03   1.5037356466967812e-03   9.3797398198148996e-01  -3.3383892759544231e-01   2.3022886910642145e-03   3.5431550109941046e-04
   6.9000000000000000e+01   2.7092302743017957e-03   1.5019926974612120e-03   9.3624967315195706e-01  -3.3849801674852859e-01   2.3161151538985693e-03   3.3496610788351757e-04
   7.0000000000000000e+01   2.7390433102423115e-03   1.5011725471450077e-03   9.3450698050159520e-01  -3.4314851510955513e-01   2.3385713470348455e-03   3.1481035200958750e-04
   7.1000000000000000e+01   2.7677196455915976e-03   1.4991967791842262e-03   9.3273886548153928e-01  -3.4778903924231619e-01   2.3598412345867551e-03   2.9693255476956944e-04
   7.2000000000000000e+01   2.7977038309533651e-03   1.4980402362693040e-03   9.3094804153553190e-01  -3.5242336130168306e-01   2.3790021420565222e-03   2.7539953135602055e-04
   7.3000000000000000e+01   2.8269567095402974e-03   1.4960097644027639e-03   9.2913491497383882e-01  -3.5705059437496511e-01   2.4000412773852197e-03   2.5388853302879327e-04
   7.4000000000000000e+01   2.8567279485526911e-03   1.4923767854517584e-03   9.2729824237863256e-01  -3.6166441479404843e-01   2.4184980732918520e-03   2.3506341470786373e-04
   7.5000000000000000e+01   2.8848267369760120e-03   1.4901072773270475e-03   9.2544004402103230e-01  -3.6626580978844608e-01   2.4389734816325304e-03   2.1469102559019590e-04
   7.6000000000000000e+01   2.9141742079634757e-03   1.4864263573859419e-03   9.2355770391404490e-01  -3.7086381436107135e-01   2.4594988055971056e-03   1.9211582356637447e-04
   7.7000000000000000e+01   2.9442991136941856e-03   1.4843238297913373e-03   9.2165255364519671e-01  -3.7544914219236059e-01   2.4783325899836741e-03   1.6832536402350252e-04
   7.8000000000000000e+01   2.9732721919945269e-03   1.4801561867175395e-03   9.1972541503144312e-01  -3.8001934003217508e-01   2.4969508111236808e-03   1.4961512530623812e-04
   7.9000000000000000e+01   3.0021992331513386e-03   1.4756209058975282e-03   9.1777805538090240e-01  -3.8457992702449961e-01   2.5169087043836261e-03   1.2913564435537987e-04
   8.0000000000000000e+01   3.0313520687735209e-03   1.4724857242115340e-03   9.1580556104203437e-01  -3.8913584369307258e-01   2.5342560853619310e-03   1.0404226721432916e-04
   8.1000000000000000e+01   3.0596562434001690e-03   1.4681217007729091e-03   9.1381341730400745e-01  -3.9367738858289053e-01   2.5521022273239454e-03   8.1405910314091140e-05
   8.2000000000000000e+01   3.0881917277175534e-03   1.4623187812422950e-03   9.1179821412065398e-01  -3.9820787737077790e-01   2.5698754305092360e-03   6.1230926814038935e-05
   8.3000000000000000e+01   3.1165672997780975e-03   1.4574008955272936e-03   9.0975794335122517e-01  -4.0273208470559740e-01   2.5860134881409633e-03   3.7477399286629104e-05
   8.4000000000000000e+01   3.1455063240241289e-03   1.4522184557677713e-03   9.0769565548448417e-01  -4.0724863771990116e-01   2.6043064076168377e-03   1.1511234165421068e-05
   8.5000000000000000e+01   3.1740696624656117e-03   1.4462799500825831e-03   9.0561434448234379e-01  -4.1174993657173614e-01   2.6189763116395673e-03  -8.9239387010878711e-06
   8.6000000000000000e+01   3.2026644105242726e-03   1.4395939012926426e-03   9.0351162898053061e-01  -4.1623949770194069e-01   2.6358423497658259e-03  -2.9937260641311764e-05
   8.7000000000000000e+01   3.2314260097137228e-03   1.4354839608380200e-03   9.0138105945540214e-01  -4.2072245871868830e-01   2.6514213243542398e-03  -5.8313621936328334e-05
   8.8000000000000000e+01   3.2605197804869471e-03   1.4283744341930271e-03   8.9923147868440534e-01  -4.2518837716352187e-01   2.6655222114195529e-03  -8.1779631896005279e-05
   8.9000000000000000e+01   3.2878255559582303e-03   1.4222107957747687e-03   8.9706421059477481e-01  -4.2963995556832379e-01   2.6801028213006097e-03  -1.0368969780397662e-04
   9.0000000000000000e+01   3.3168789975995716e-03   1.4154718527814860e-03   8.9486996022381005e-01  -4.3408604669723483e-01   2.6957280628433933e-03  -1.2760667448751591e-04
   9.1000000000000000e+01   3.3449552693266774e-03   1.4081891713925894e-03   8.9265359206767481e-01  -4.3852672405859011e-01   2.7095211958128463e-03  -1.5529425947120130e-04
   9.2000000000000000e+01   3.3725761069646441e-03   1.4005091371362645e-03   8.9041812818521204e-01  -4.4295022847370524e-01   2.7234222698424445e-03  -1.7695512507585323e-04
   9.3000000000000000e+01   3.4001100681108195e-03   1.3933167379873716e-03   8.8816211757524477e-01  -4.4735657743622986e-01   2.7373939293766011e-03  -2.0000390252753473e-04
   9.4000000000000000e+01   3.4288841115611424e-03   1.3861011259751277e-03   8.8588042665277777e-01  -4.5175821646246839e-01   2.7492335562981206e-03  -2.2794747470914400e-04
   9.5000000000000000e+01   3.4562507263957262e-03   1.3773862436877451e-03   8.8357653900507638e-01  -4.5614923923044259e-01   2.7630623280047186e-03  -2.5285836038589377e-04
   9.6000000000000000e+01   3.4841981862001217e-03   1.3693914441096351e-03   8.8125727736656645e-01  -4.6052018343525325e-01   2.7729517101054268e-03  -2.7663926241477130e-04
   9.7000000000000000e+01   3.5114775682225674e-03   1.3607890295301941e-03   8.7891039330151299e-01  -4.6488485689929471e-01   2.7861326573846413e-03  -3.0477130486801941e-04
   9.8000000000000000e+01   3.5401634163736572e-03   1.3514951920092781e-03   8.7654535821516222e-01  -4.6923246153174325e-01   2.7974022541608287e-03  -3.2818769434837325e-04
   9.9000000000000000e+01   3.5657529583284597e-03   1.3422835436784390e-03   8.7415819928856420e-01  -4.7357079921343659e-01   2.8105418136603962e-03  -3.5369992878107317e-04
   1.0000000000000000e+02   3.5936175714836524e-03   1.3334990857555341e-03   8.7175237573988740e-01  -4.7789573037361877e-01   2.8218328719790023e-03  -3.7722305909903891e-04
   1.0100000000000000e+02   3.6213577011512642e-03   1.3239345135812679e-03   8.6932189240613100e-01  -4.8221177682430844e-01   2.8333840625910031e-03  -4.0278846655646041e-04
   1.0200000000000000e+02   3.6489600517526266e-03   1.3147915126664391e-03   8.6687244558403942e-01  -4.8650965033816562e-01   2.8462806181458501e-03  -4.3017348966619068e-04
   1.0300000000000000e+02   3.6755480970052340e-03   1.3057525854606475e-03   8.6439680657088447e-01  -4.9080422716823557e-01   2.8570481785471125e-03  -4.5894954090750645e-04
   1.0400000000000000e+02   3.7024410762703862e-03   1.2958594047938823e-03   8.6190613486700918e-01  -4.9507674000623203e-01   2.8689161806192695e-03  -4.8332770898005953e-04
   1.0500000000000000e+02   3.7299252939895990e-03   1.2846363268498946e-03   8.5938768584045133e-01  -4.9934800584989208e-01   2.8785925829475220e-03  -5.1219211754293358e-04
   1.0600000000000000e+02   3.7560644263802340e-03   1.2734990830582480e-03   8.5685493681250502e-01  -5.0359169856830910e-01   2.8895510440734573e-03  -5.3435694371268888e-04
   1.0700000000000000e+02   3.7825588419656891e-03   1.2629152384311777e-03   8.5429429048801342e-01  -5.0783436968062190e-01   2.9002223715350272e-03  -5.5976366982305858e-04
   1.0800000000000000e+02   3.8093687872820950e-03   1.2524254349877693e-03   8.5172248165284126e-01  -5.1205029854134299e-01   2.9096198298726988e-03  -5.8174835146338269e-04
   1.0900000000000000e+02   3.8349339799258089e-03   1.2413754347405490e-03   8.4912519650359997e-01  -5.1626173037194378e-01   2.9221022371317801e-03  -6.0732246934850406e-04
   1.1000000000000000e+02   3.8616088944851169e-03   1.2310027773828570e-03   8.4651148345584004e-01  -5.2044948735429752e-01   2.9314221946802163e-03  -6.3071416226610560e-04
   1.1100000000000000e+02   3.8880132180637312e-03   1.2208152449947798e-03   8.4387200946309782e-01  -5.2463625692239801e-01   2.9426676152549650e-03  -6.5674478832698866e-04
   1.1200000000000000e+02   3.9137987747508594e-03   1.2084976368069815e-03   8.4121762353364948e-01  -5.2880114992905514e-01   2.9555840892080340e-03  -6.8031686875994705e-04
